Data from ambient_uvvis_AbsoluteIrradiance__160__08-26-07-887.txt Node

Date: Wed May 17 08:26:07 CDT 2023
User: jwaczak
Spectrometer: HR4D3312
Trigger mode: 4
Integration Time (sec): 1.000000E0
Scans to average: 60
Electric dark correction enabled: true
Nonlinearity correction enabled: true
Boxcar width: 5
XAxis mode: Wavelengths
Number of Pixels in Spectrum: 3648
>>>>>Begin Spectral Data<<<<<
194.249	0
194.519	0
194.789	0
195.059	0
195.329	0
195.599	0
195.868	0
196.138	0
196.408	0
196.678	-0
196.948	-0
197.218	-0
197.488	-0
197.758	-0
198.028	-0
198.297	0
198.567	0
198.837	0
199.107	0
199.377	0
199.647	0
199.916	0
200.186	5.93
200.456	6.26
200.726	7
200.996	6.35
201.265	4.23
201.535	6.06
201.805	5.57
202.075	5.1
202.344	3.94
202.614	5.3
202.884	5.35
203.153	5.44
203.423	2.98
203.693	4.91
203.962	5.45
204.232	7.85
204.502	5.33
204.772	5.65
205.041	6.92
205.311	7.07
205.58	6.93
205.85	7.82
206.12	9.08
206.389	9.42
206.659	7.6
206.929	8.73
207.198	7.45
207.468	8.55
207.737	8.23
208.007	6.39
208.276	7.15
208.546	6.55
208.815	4.98
209.085	4.51
209.355	5.28
209.624	6.85
209.894	3.72
210.163	5.26
210.433	4.67
210.702	4.2
210.972	4.23
211.241	4.3
211.51	5.8
211.78	5.35
212.049	3.39
212.319	3.4
212.588	2.92
212.858	4.17
213.127	2.4
213.397	2.83
213.666	3.36
213.935	3.54
214.205	1.93
214.474	1.64
214.743	4.77
215.013	5.49
215.282	4.54
215.552	3.89
215.821	3.47
216.09	3.14
216.359	2.19
216.629	1.91
216.898	2.42
217.167	3.85
217.437	1.49
217.706	0.78
217.975	-0.17
218.245	0.19
218.514	2.05
218.783	4.31
219.052	4.82
219.321	6.14
219.591	6.67
219.86	6.86
220.129	7.36
220.398	8.8
220.668	7.94
220.937	8.78
221.206	10.01
221.475	8.59
221.744	9.61
222.013	10.51
222.283	10.22
222.552	7.93
222.821	7.15
223.09	6.39
223.359	6.43
223.628	6.88
223.897	5.36
224.166	4.96
224.435	5.52
224.704	4.12
224.974	2.91
225.243	3.54
225.512	5.5
225.781	6.45
226.05	6.53
226.319	5.9
226.588	5.29
226.857	5.8
227.126	5.1
227.395	4.52
227.664	3.64
227.933	4.47
228.202	2.6
228.471	2.04
228.74	2.57
229.009	2.67
229.278	1.92
229.546	2.41
229.815	3.56
230.084	4.07
230.353	3.19
230.622	3.5
230.891	3.49
231.16	4.34
231.429	3.82
231.698	3.31
231.966	3.14
232.235	3.4
232.504	2.65
232.773	2.28
233.042	2.86
233.311	3.14
233.579	2.44
233.848	2.44
234.117	2.65
234.386	2.46
234.655	1.96
234.923	2.18
235.192	2.55
235.461	2.53
235.73	2.53
235.998	1.6
236.267	1.38
236.536	2.07
236.804	1.71
237.073	1.61
237.342	1.95
237.611	1.68
237.879	1.26
238.148	1.5
238.417	1.74
238.685	1.64
238.954	1.73
239.223	2.24
239.491	2.11
239.76	1.95
240.028	1.37
240.297	1.18
240.566	1.23
240.834	0.99
241.103	0.49
241.371	0.68
241.64	0.75
241.909	0.91
242.177	0.37
242.446	0.03
242.714	-0.13
242.983	0.23
243.251	0.48
243.52	0.53
243.788	0.99
244.057	1.21
244.325	0.86
244.594	0.73
244.862	0.57
245.131	0.65
245.399	0.84
245.668	1.07
245.936	0.86
246.204	0.63
246.473	0.71
246.741	0.64
247.01	0.65
247.278	0.69
247.546	0.57
247.815	0.63
248.083	0.75
248.352	0.61
248.62	0.56
248.888	0.62
249.157	0.65
249.425	0.6
249.693	0.53
249.962	0.58
250.23	0.62
250.498	0.73
250.767	0.67
251.035	0.63
251.303	0.79
251.571	0.9
251.84	0.75
252.108	0.72
252.376	0.75
252.644	0.57
252.913	0.36
253.181	0.31
253.449	0.15
253.717	0.21
253.985	0.02
254.254	-0.13
254.522	-0.14
254.79	-0.1
255.058	-0.21
255.326	-0.23
255.594	-0.09
255.863	-0.04
256.131	-0.13
256.399	-0.03
256.667	-0.14
256.935	-0.04
257.203	0.01
257.471	0.01
257.739	0.12
258.007	0.18
258.275	0.06
258.544	-0.04
258.812	-0.09
259.08	0.01
259.348	0.03
259.616	0.2
259.884	0.2
260.152	0.2
260.42	0.15
260.688	0.19
260.956	0.32
261.224	0.39
261.492	0.47
261.76	0.57
262.028	0.56
262.296	0.51
262.563	0.35
262.831	0.36
263.099	0.33
263.367	0.31
263.635	0.24
263.903	0.17
264.171	0.24
264.439	0.18
264.707	0.13
264.975	0.14
265.242	0.17
265.51	0.26
265.778	0.22
266.046	0.23
266.314	0.28
266.582	0.25
266.849	0.24
267.117	0.18
267.385	0.21
267.653	0.15
267.921	0.15
268.188	0.12
268.456	0.11
268.724	0.17
268.992	0.22
269.259	0.23
269.527	0.28
269.795	0.21
270.062	0.22
270.33	0.25
270.598	0.28
270.866	0.28
271.133	0.24
271.401	0.23
271.669	0.27
271.936	0.16
272.204	0.07
272.472	0.08
272.739	0.15
273.007	0.17
273.274	0.12
273.542	0.13
273.81	0.1
274.077	0.1
274.345	0.06
274.612	0.02
274.88	0.11
275.147	0.13
275.415	0.1
275.683	0.14
275.95	0.13
276.218	0.11
276.485	0.09
276.753	0.12
277.02	0.18
277.288	0.18
277.555	0.16
277.823	0.16
278.09	0.2
278.358	0.24
278.625	0.16
278.892	0.16
279.16	0.19
279.427	0.16
279.695	0.14
279.962	0.13
280.23	0.16
280.497	0.14
280.764	0.1
281.032	0.11
281.299	0.08
281.566	0.11
281.834	0.08
282.101	0.11
282.368	0.16
282.636	0.16
282.903	0.12
283.17	0.11
283.438	0.13
283.705	0.13
283.972	0.07
284.24	0.06
284.507	0.06
284.774	0.08
285.041	0.03
285.309	-0.01
285.576	0.01
285.843	0.03
286.11	0.01
286.378	0.01
286.645	0
286.912	0.02
287.179	-0.01
287.446	-0
287.714	-0.01
287.981	0.02
288.248	0.03
288.515	-0
288.782	0
289.049	0
289.316	-0.01
289.584	0.02
289.851	0.03
290.118	0.02
290.385	0.01
290.652	0.01
290.919	0.01
291.186	0.02
291.453	0.01
291.72	-0
291.987	0.01
292.254	0.02
292.521	-0.01
292.788	-0
293.055	0.03
293.322	0.06
293.589	0.05
293.856	0.05
294.123	0.05
294.39	0.06
294.657	0.06
294.924	0.08
295.191	0.07
295.458	0.06
295.725	0.06
295.992	0.04
296.259	0.03
296.526	0.04
296.793	0.02
297.06	0.01
297.326	0.04
297.593	0.03
297.86	0.01
298.127	0.03
298.394	0.04
298.661	0.03
298.927	0.04
299.194	0.06
299.461	0.06
299.728	0.06
299.995	0.06
300.262	0.04
300.528	0.03
300.795	0.03
301.062	0
301.329	0.02
301.595	0.04
301.862	0.04
302.129	0.01
302.396	0.01
302.662	0.03
302.929	0.03
303.196	0.03
303.462	0.04
303.729	0.07
303.996	0.09
304.262	0.06
304.529	0.05
304.796	0.07
305.062	0.07
305.329	0.06
305.596	0.07
305.862	0.07
306.129	0.06
306.395	0.06
306.662	0.06
306.929	0.05
307.195	0.07
307.462	0.05
307.728	0.04
307.995	0.03
308.261	0.05
308.528	0.02
308.794	0.04
309.061	0.04
309.328	0.04
309.594	0.03
309.861	0.04
310.127	0.05
310.393	0.07
310.66	0.07
310.926	0.09
311.193	0.1
311.459	0.11
311.726	0.11
311.992	0.12
312.259	0.15
312.525	0.15
312.791	0.13
313.058	0.12
313.324	0.11
313.591	0.11
313.857	0.08
314.123	0.09
314.39	0.09
314.656	0.09
314.922	0.07
315.189	0.06
315.455	0.06
315.721	0.07
315.988	0.06
316.254	0.05
316.52	0.07
316.786	0.07
317.053	0.07
317.319	0.06
317.585	0.07
317.852	0.07
318.118	0.05
318.384	0.06
318.65	0.06
318.916	0.06
319.183	0.07
319.449	0.07
319.715	0.07
319.981	0.05
320.247	0.04
320.514	0.04
320.78	0.06
321.046	0.07
321.312	0.06
321.578	0.06
321.844	0.08
322.11	0.08
322.376	0.06
322.643	0.06
322.909	0.07
323.175	0.06
323.441	0.04
323.707	0.03
323.973	0.04
324.239	0.04
324.505	0.04
324.771	0.04
325.037	0.02
325.303	0.02
325.569	0.02
325.835	0.04
326.101	0.05
326.367	0.06
326.633	0.06
326.899	0.04
327.165	0.06
327.431	0.05
327.697	0.05
327.963	0.07
328.229	0.08
328.495	0.07
328.761	0.06
329.026	0.06
329.292	0.06
329.558	0.07
329.824	0.08
330.09	0.07
330.356	0.08
330.622	0.07
330.888	0.06
331.153	0.06
331.419	0.07
331.685	0.08
331.951	0.07
332.217	0.07
332.482	0.07
332.748	0.07
333.014	0.07
333.28	0.07
333.546	0.07
333.811	0.06
334.077	0.05
334.343	0.06
334.608	0.06
334.874	0.07
335.14	0.05
335.406	0.05
335.671	0.06
335.937	0.06
336.203	0.05
336.468	0.06
336.734	0.07
337	0.08
337.265	0.07
337.531	0.06
337.797	0.06
338.062	0.07
338.328	0.07
338.593	0.06
338.859	0.07
339.125	0.06
339.39	0.05
339.656	0.05
339.921	0.06
340.187	0.05
340.452	0.06
340.718	0.05
340.983	0.06
341.249	0.05
341.514	0.04
341.78	0.04
342.045	0.05
342.311	0.05
342.576	0.04
342.842	0.03
343.107	0.04
343.373	0.03
343.638	0.03
343.904	0.03
344.169	0.03
344.435	0.04
344.7	0.03
344.965	0.04
345.231	0.04
345.496	0.04
345.761	0.04
346.027	0.04
346.292	0.04
346.558	0.04
346.823	0.04
347.088	0.04
347.354	0.04
347.619	0.04
347.884	0.03
348.149	0.03
348.415	0.04
348.68	0.04
348.945	0.03
349.211	0.03
349.476	0.04
349.741	0.03
350.006	0.02
350.272	0.03
350.537	0.04
350.802	0.04
351.067	0.03
351.332	0.03
351.598	0.03
351.863	0.04
352.128	0.02
352.393	0.03
352.658	0.03
352.924	0.03
353.189	0.02
353.454	0.02
353.719	0.02
353.984	0.03
354.249	0.02
354.514	0.03
354.779	0.03
355.044	0.03
355.309	0.03
355.575	0.03
355.84	0.03
356.105	0.03
356.37	0.02
356.635	0.02
356.9	0.02
357.165	0.02
357.43	0.02
357.695	0.02
357.96	0.02
358.225	0.02
358.49	0.02
358.755	0.02
359.02	0.02
359.285	0.02
359.55	0.01
359.815	0.01
360.079	0.02
360.344	0.02
360.609	0.01
360.874	0.01
361.139	0.02
361.404	0.03
361.669	0.03
361.934	0.04
362.199	0.05
362.463	0.07
362.728	0.08
362.993	0.08
363.258	0.11
363.523	0.13
363.788	0.15
364.052	0.18
364.317	0.2
364.582	0.21
364.847	0.2
365.111	0.19
365.376	0.19
365.641	0.17
365.906	0.16
366.17	0.14
366.435	0.12
366.7	0.09
366.965	0.06
367.229	0.04
367.494	0.03
367.759	0.03
368.023	0.02
368.288	0.02
368.553	0.02
368.817	0.02
369.082	0.02
369.347	0.02
369.611	0.03
369.876	0.03
370.14	0.02
370.405	0.02
370.67	0.03
370.934	0.02
371.199	0.01
371.463	0.02
371.728	0.02
371.992	0.02
372.257	0.02
372.522	0.01
372.786	0.02
373.051	0.02
373.315	0.02
373.58	0.02
373.844	0.02
374.109	0.02
374.373	0.03
374.637	0.03
374.902	0.03
375.166	0.03
375.431	0.03
375.695	0.03
375.96	0.03
376.224	0.04
376.489	0.03
376.753	0.04
377.017	0.04
377.282	0.03
377.546	0.03
377.81	0.03
378.075	0.03
378.339	0.03
378.603	0.02
378.868	0.01
379.132	0.02
379.396	0.01
379.661	0.01
379.925	0.02
380.189	0.02
380.454	0.02
380.718	0.01
380.982	0.02
381.246	0.03
381.511	0.03
381.775	0.03
382.039	0.03
382.303	0.04
382.568	0.04
382.832	0.03
383.096	0.03
383.36	0.03
383.624	0.04
383.888	0.03
384.153	0.02
384.417	0.02
384.681	0.03
384.945	0.01
385.209	0.01
385.473	0.02
385.737	0.02
386.002	0.01
386.266	0.01
386.53	0.01
386.794	0.01
387.058	0.01
387.322	0.01
387.586	0.01
387.85	0.01
388.114	0.01
388.378	0.01
388.642	0
388.906	0.01
389.17	0.01
389.434	0.01
389.698	0.02
389.962	0.02
390.226	0.01
390.49	0
390.754	0.01
391.018	0
391.282	0
391.546	0.01
391.81	0.02
392.074	0.01
392.337	0.01
392.601	0.01
392.865	0.02
393.129	0.02
393.393	0.02
393.657	0.02
393.921	0.03
394.185	0.03
394.448	0.02
394.712	0.01
394.976	0.02
395.24	0.02
395.504	0.01
395.767	0.01
396.031	0.01
396.295	0.01
396.559	0.01
396.822	0.01
397.086	0.01
397.35	0.02
397.614	0.02
397.877	0.02
398.141	0.02
398.405	0.03
398.669	0.02
398.932	0.03
399.196	0.03
399.46	0.04
399.723	0.03
399.987	0.03
400.251	0.04
400.514	0.05
400.778	0.04
401.041	0.04
401.305	0.05
401.569	0.06
401.832	0.07
402.096	0.1
402.359	0.14
402.623	0.17
402.887	0.22
403.15	0.28
403.414	0.35
403.677	0.41
403.941	0.45
404.204	0.46
404.468	0.46
404.731	0.44
404.995	0.41
405.258	0.38
405.522	0.34
405.785	0.3
406.049	0.23
406.312	0.17
406.575	0.11
406.839	0.08
407.102	0.07
407.366	0.06
407.629	0.07
407.893	0.07
408.156	0.06
408.419	0.06
408.683	0.06
408.946	0.06
409.209	0.05
409.473	0.05
409.736	0.05
409.999	0.04
410.263	0.04
410.526	0.04
410.789	0.04
411.053	0.04
411.316	0.04
411.579	0.04
411.843	0.05
412.106	0.04
412.369	0.04
412.632	0.04
412.896	0.05
413.159	0.05
413.422	0.05
413.685	0.05
413.948	0.06
414.212	0.06
414.475	0.06
414.738	0.06
415.001	0.06
415.264	0.07
415.527	0.06
415.791	0.06
416.054	0.07
416.317	0.07
416.58	0.07
416.843	0.07
417.106	0.07
417.369	0.08
417.632	0.08
417.895	0.08
418.158	0.08
418.422	0.08
418.685	0.08
418.948	0.08
419.211	0.08
419.474	0.08
419.737	0.08
420	0.08
420.263	0.08
420.526	0.08
420.789	0.08
421.052	0.08
421.315	0.08
421.578	0.08
421.841	0.08
422.103	0.08
422.366	0.09
422.629	0.1
422.892	0.09
423.155	0.09
423.418	0.09
423.681	0.1
423.944	0.1
424.207	0.1
424.47	0.11
424.732	0.11
424.995	0.11
425.258	0.11
425.521	0.11
425.784	0.12
426.047	0.12
426.309	0.13
426.572	0.14
426.835	0.14
427.098	0.14
427.36	0.14
427.623	0.14
427.886	0.15
428.149	0.15
428.411	0.15
428.674	0.15
428.937	0.16
429.2	0.16
429.462	0.16
429.725	0.17
429.988	0.17
430.25	0.18
430.513	0.18
430.776	0.19
431.038	0.2
431.301	0.2
431.564	0.21
431.826	0.23
432.089	0.25
432.351	0.28
432.614	0.32
432.877	0.38
433.139	0.49
433.402	0.64
433.664	0.83
433.927	1.06
434.189	1.35
434.452	1.7
434.715	2.07
434.977	2.36
435.24	2.52
435.502	2.54
435.765	2.49
436.027	2.39
436.289	2.23
436.552	2.04
436.814	1.81
437.077	1.52
437.339	1.17
437.602	0.78
437.864	0.48
438.127	0.3
438.389	0.24
438.651	0.23
438.914	0.22
439.176	0.22
439.439	0.22
439.701	0.22
439.963	0.22
440.226	0.22
440.488	0.22
440.75	0.21
441.013	0.21
441.275	0.22
441.537	0.22
441.8	0.21
442.062	0.21
442.324	0.22
442.586	0.22
442.849	0.22
443.111	0.22
443.373	0.22
443.635	0.22
443.898	0.22
444.16	0.22
444.422	0.22
444.684	0.22
444.946	0.22
445.209	0.22
445.471	0.22
445.733	0.23
445.995	0.22
446.257	0.22
446.519	0.22
446.782	0.22
447.044	0.22
447.306	0.23
447.568	0.23
447.83	0.23
448.092	0.23
448.354	0.23
448.616	0.23
448.878	0.23
449.14	0.23
449.402	0.23
449.664	0.23
449.926	0.23
450.188	0.23
450.45	0.23
450.712	0.23
450.974	0.23
451.236	0.23
451.498	0.23
451.76	0.24
452.022	0.24
452.284	0.23
452.546	0.23
452.808	0.23
453.07	0.23
453.332	0.23
453.594	0.22
453.856	0.23
454.118	0.22
454.38	0.22
454.642	0.22
454.903	0.22
455.165	0.22
455.427	0.21
455.689	0.21
455.951	0.21
456.213	0.22
456.474	0.21
456.736	0.21
456.998	0.22
457.26	0.21
457.522	0.21
457.783	0.21
458.045	0.21
458.307	0.21
458.569	0.21
458.83	0.21
459.092	0.21
459.354	0.21
459.615	0.21
459.877	0.21
460.139	0.21
460.401	0.21
460.662	0.21
460.924	0.21
461.186	0.21
461.447	0.22
461.709	0.22
461.97	0.21
462.232	0.22
462.494	0.22
462.755	0.21
463.017	0.21
463.279	0.22
463.54	0.22
463.802	0.21
464.063	0.21
464.325	0.21
464.586	0.21
464.848	0.2
465.109	0.2
465.371	0.2
465.632	0.2
465.894	0.2
466.155	0.2
466.417	0.2
466.678	0.2
466.94	0.2
467.201	0.2
467.463	0.2
467.724	0.2
467.986	0.19
468.247	0.19
468.508	0.19
468.77	0.19
469.031	0.19
469.293	0.19
469.554	0.19
469.815	0.19
470.077	0.19
470.338	0.19
470.599	0.19
470.861	0.2
471.122	0.19
471.383	0.19
471.645	0.19
471.906	0.19
472.167	0.19
472.429	0.19
472.69	0.19
472.951	0.19
473.212	0.18
473.474	0.18
473.735	0.19
473.996	0.19
474.257	0.18
474.519	0.18
474.78	0.19
475.041	0.19
475.302	0.18
475.563	0.18
475.825	0.18
476.086	0.18
476.347	0.18
476.608	0.18
476.869	0.18
477.13	0.19
477.391	0.18
477.653	0.18
477.914	0.19
478.175	0.19
478.436	0.19
478.697	0.19
478.958	0.2
479.219	0.2
479.48	0.2
479.741	0.21
480.002	0.21
480.263	0.22
480.524	0.23
480.785	0.24
481.046	0.25
481.307	0.27
481.568	0.28
481.829	0.3
482.09	0.33
482.351	0.35
482.612	0.38
482.873	0.41
483.134	0.44
483.395	0.48
483.656	0.51
483.917	0.55
484.177	0.6
484.438	0.64
484.699	0.68
484.96	0.72
485.221	0.76
485.482	0.8
485.743	0.83
486.003	0.85
486.264	0.88
486.525	0.89
486.786	0.9
487.047	0.9
487.308	0.9
487.568	0.9
487.829	0.89
488.09	0.88
488.351	0.87
488.611	0.86
488.872	0.85
489.133	0.83
489.394	0.82
489.654	0.81
489.915	0.79
490.176	0.77
490.436	0.76
490.697	0.75
490.958	0.73
491.218	0.71
491.479	0.69
491.74	0.68
492	0.66
492.261	0.64
492.521	0.63
492.782	0.62
493.043	0.6
493.303	0.58
493.564	0.56
493.824	0.55
494.085	0.53
494.346	0.51
494.606	0.5
494.867	0.49
495.127	0.47
495.388	0.46
495.648	0.46
495.909	0.45
496.169	0.44
496.43	0.43
496.69	0.43
496.951	0.42
497.211	0.4
497.471	0.39
497.732	0.38
497.992	0.36
498.253	0.34
498.513	0.33
498.774	0.31
499.034	0.29
499.294	0.27
499.555	0.25
499.815	0.24
500.075	0.22
500.336	0.21
500.596	0.19
500.857	0.19
501.117	0.18
501.377	0.16
501.637	0.16
501.898	0.15
502.158	0.14
502.418	0.13
502.679	0.13
502.939	0.12
503.199	0.12
503.459	0.11
503.72	0.11
503.98	0.11
504.24	0.11
504.5	0.1
504.76	0.1
505.021	0.1
505.281	0.09
505.541	0.09
505.801	0.09
506.061	0.09
506.321	0.09
506.582	0.08
506.842	0.08
507.102	0.08
507.362	0.08
507.622	0.08
507.882	0.08
508.142	0.08
508.402	0.08
508.662	0.08
508.923	0.08
509.183	0.08
509.443	0.08
509.703	0.08
509.963	0.08
510.223	0.08
510.483	0.08
510.743	0.08
511.003	0.07
511.263	0.08
511.523	0.08
511.783	0.07
512.043	0.07
512.303	0.08
512.562	0.08
512.822	0.07
513.082	0.07
513.342	0.08
513.602	0.07
513.862	0.07
514.122	0.07
514.382	0.07
514.642	0.07
514.901	0.07
515.161	0.07
515.421	0.07
515.681	0.07
515.941	0.07
516.201	0.07
516.46	0.07
516.72	0.07
516.98	0.07
517.24	0.07
517.5	0.07
517.759	0.07
518.019	0.07
518.279	0.07
518.539	0.07
518.798	0.07
519.058	0.06
519.318	0.06
519.577	0.06
519.837	0.06
520.097	0.06
520.357	0.06
520.616	0.06
520.876	0.06
521.135	0.06
521.395	0.06
521.655	0.06
521.914	0.06
522.174	0.06
522.434	0.06
522.693	0.06
522.953	0.06
523.212	0.06
523.472	0.06
523.731	0.06
523.991	0.06
524.251	0.05
524.51	0.05
524.77	0.05
525.029	0.05
525.289	0.05
525.548	0.05
525.808	0.06
526.067	0.06
526.327	0.06
526.586	0.06
526.846	0.06
527.105	0.06
527.364	0.06
527.624	0.06
527.883	0.06
528.143	0.06
528.402	0.06
528.661	0.06
528.921	0.07
529.18	0.07
529.44	0.06
529.699	0.07
529.958	0.07
530.218	0.07
530.477	0.07
530.736	0.08
530.996	0.08
531.255	0.09
531.514	0.09
531.773	0.1
532.033	0.11
532.292	0.12
532.551	0.12
532.81	0.13
533.07	0.14
533.329	0.14
533.588	0.15
533.847	0.15
534.107	0.16
534.366	0.16
534.625	0.16
534.884	0.17
535.143	0.18
535.403	0.18
535.662	0.19
535.921	0.21
536.18	0.23
536.439	0.26
536.698	0.29
536.957	0.33
537.216	0.37
537.475	0.42
537.735	0.46
537.994	0.52
538.253	0.58
538.512	0.65
538.771	0.73
539.03	0.82
539.289	0.92
539.548	1.04
539.807	1.18
540.066	1.35
540.325	1.56
540.584	1.79
540.843	2.05
541.102	2.33
541.361	2.61
541.62	2.88
541.879	3.14
542.138	3.37
542.397	3.58
542.655	3.75
542.914	3.88
543.173	3.96
543.432	3.99
543.691	3.98
543.95	3.95
544.209	3.91
544.468	3.87
544.726	3.84
544.985	3.79
545.244	3.69
545.503	3.53
545.762	3.32
546.02	3.08
546.279	2.85
546.538	2.62
546.797	2.38
547.056	2.14
547.314	1.9
547.573	1.66
547.832	1.44
548.091	1.26
548.349	1.15
548.608	1.11
548.867	1.08
549.125	1.06
549.384	1.04
549.643	1.02
549.901	1
550.16	0.97
550.419	0.94
550.677	0.9
550.936	0.87
551.195	0.84
551.453	0.81
551.712	0.78
551.97	0.75
552.229	0.72
552.488	0.69
552.746	0.65
553.005	0.61
553.263	0.56
553.522	0.51
553.78	0.46
554.039	0.41
554.297	0.36
554.556	0.31
554.814	0.28
555.073	0.24
555.331	0.21
555.59	0.19
555.848	0.17
556.107	0.16
556.365	0.14
556.623	0.13
556.882	0.13
557.14	0.12
557.399	0.11
557.657	0.11
557.916	0.1
558.174	0.1
558.432	0.1
558.691	0.09
558.949	0.09
559.207	0.09
559.466	0.09
559.724	0.08
559.982	0.08
560.241	0.08
560.499	0.08
560.757	0.08
561.015	0.08
561.274	0.08
561.532	0.07
561.79	0.07
562.048	0.07
562.307	0.07
562.565	0.07
562.823	0.07
563.081	0.07
563.34	0.07
563.598	0.07
563.856	0.06
564.114	0.07
564.372	0.06
564.63	0.06
564.889	0.06
565.147	0.06
565.405	0.06
565.663	0.06
565.921	0.06
566.179	0.06
566.437	0.06
566.695	0.05
566.953	0.05
567.211	0.06
567.47	0.06
567.728	0.06
567.986	0.06
568.244	0.06
568.502	0.06
568.76	0.06
569.018	0.06
569.276	0.06
569.534	0.06
569.792	0.06
570.05	0.06
570.308	0.06
570.566	0.06
570.823	0.06
571.081	0.06
571.339	0.06
571.597	0.07
571.855	0.07
572.113	0.07
572.371	0.08
572.629	0.08
572.887	0.08
573.145	0.09
573.402	0.09
573.66	0.1
573.918	0.11
574.176	0.12
574.434	0.13
574.691	0.14
574.949	0.16
575.207	0.18
575.465	0.22
575.723	0.25
575.98	0.28
576.238	0.31
576.496	0.32
576.754	0.34
577.011	0.35
577.269	0.37
577.527	0.4
577.784	0.43
578.042	0.45
578.3	0.47
578.557	0.48
578.815	0.5
579.073	0.52
579.33	0.55
579.588	0.59
579.846	0.61
580.103	0.62
580.361	0.63
580.619	0.64
580.876	0.65
581.134	0.65
581.391	0.66
581.649	0.68
581.906	0.71
582.164	0.73
582.421	0.76
582.679	0.79
582.937	0.82
583.194	0.84
583.452	0.85
583.709	0.86
583.966	0.87
584.224	0.86
584.481	0.85
584.739	0.84
584.996	0.83
585.254	0.82
585.511	0.82
585.769	0.84
586.026	0.87
586.283	0.91
586.541	0.94
586.798	0.97
587.056	0.98
587.313	0.98
587.57	0.98
587.828	0.96
588.085	0.94
588.342	0.9
588.6	0.86
588.857	0.8
589.114	0.75
589.372	0.69
589.629	0.64
589.886	0.61
590.143	0.59
590.401	0.57
590.658	0.57
590.915	0.56
591.172	0.57
591.43	0.57
591.687	0.58
591.944	0.6
592.201	0.6
592.458	0.6
592.715	0.6
592.973	0.59
593.23	0.57
593.487	0.54
593.744	0.51
594.001	0.48
594.258	0.44
594.515	0.4
594.773	0.35
595.03	0.32
595.287	0.29
595.544	0.27
595.801	0.25
596.058	0.25
596.315	0.25
596.572	0.24
596.829	0.25
597.086	0.26
597.343	0.27
597.6	0.28
597.857	0.29
598.114	0.31
598.371	0.33
598.628	0.35
598.885	0.36
599.142	0.37
599.399	0.37
599.656	0.37
599.913	0.36
600.17	0.35
600.427	0.33
600.683	0.31
600.94	0.28
601.197	0.26
601.454	0.24
601.711	0.22
601.968	0.2
602.225	0.19
602.481	0.19
602.738	0.18
602.995	0.18
603.252	0.18
603.509	0.19
603.765	0.19
604.022	0.19
604.279	0.2
604.536	0.21
604.792	0.22
605.049	0.23
605.306	0.24
605.563	0.26
605.819	0.27
606.076	0.29
606.333	0.31
606.589	0.34
606.846	0.37
607.103	0.41
607.359	0.46
607.616	0.53
607.873	0.6
608.129	0.7
608.386	0.83
608.643	1
608.899	1.22
609.156	1.53
609.412	1.92
609.669	2.4
609.926	2.93
610.182	3.45
610.439	3.91
610.695	4.25
610.952	4.46
611.208	4.56
611.465	4.58
611.721	4.52
611.978	4.36
612.234	4.1
612.491	3.73
612.747	3.29
613.004	2.84
613.26	2.45
613.517	2.14
613.773	1.93
614.029	1.78
614.286	1.66
614.542	1.55
614.799	1.44
615.055	1.33
615.311	1.23
615.568	1.14
615.824	1.05
616.08	0.96
616.337	0.88
616.593	0.82
616.849	0.76
617.106	0.71
617.362	0.69
617.618	0.67
617.875	0.66
618.131	0.66
618.387	0.66
618.643	0.68
618.9	0.69
619.156	0.7
619.412	0.72
619.668	0.74
619.925	0.75
620.181	0.76
620.437	0.76
620.693	0.76
620.949	0.76
621.206	0.74
621.462	0.73
621.718	0.71
621.974	0.69
622.23	0.66
622.486	0.64
622.742	0.62
622.998	0.6
623.255	0.59
623.511	0.57
623.767	0.56
624.023	0.55
624.279	0.53
624.535	0.52
624.791	0.51
625.047	0.5
625.303	0.48
625.559	0.47
625.815	0.46
626.071	0.44
626.327	0.43
626.583	0.42
626.839	0.41
627.095	0.41
627.351	0.41
627.607	0.41
627.863	0.41
628.119	0.42
628.375	0.43
628.63	0.44
628.886	0.47
629.142	0.5
629.398	0.54
629.654	0.58
629.91	0.63
630.166	0.66
630.421	0.68
630.677	0.68
630.933	0.68
631.189	0.65
631.445	0.62
631.701	0.57
631.956	0.52
632.212	0.46
632.468	0.38
632.724	0.32
632.979	0.26
633.235	0.21
633.491	0.17
633.747	0.15
634.002	0.14
634.258	0.13
634.514	0.12
634.769	0.11
635.025	0.11
635.281	0.11
635.536	0.1
635.792	0.1
636.048	0.1
636.303	0.1
636.559	0.09
636.814	0.09
637.07	0.09
637.326	0.09
637.581	0.08
637.837	0.08
638.092	0.08
638.348	0.08
638.604	0.08
638.859	0.08
639.115	0.08
639.37	0.08
639.626	0.08
639.881	0.08
640.137	0.08
640.392	0.08
640.648	0.08
640.903	0.08
641.158	0.08
641.414	0.08
641.669	0.08
641.925	0.08
642.18	0.09
642.436	0.09
642.691	0.09
642.946	0.09
643.202	0.09
643.457	0.09
643.713	0.09
643.968	0.09
644.223	0.1
644.479	0.1
644.734	0.1
644.989	0.1
645.244	0.1
645.5	0.1
645.755	0.1
646.01	0.1
646.266	0.1
646.521	0.1
646.776	0.1
647.031	0.1
647.287	0.1
647.542	0.11
647.797	0.1
648.052	0.11
648.307	0.12
648.563	0.13
648.818	0.15
649.073	0.17
649.328	0.19
649.583	0.2
649.838	0.21
650.094	0.22
650.349	0.23
650.604	0.23
650.859	0.22
651.114	0.22
651.369	0.21
651.624	0.2
651.879	0.18
652.134	0.16
652.389	0.15
652.644	0.14
652.899	0.13
653.154	0.12
653.409	0.12
653.664	0.11
653.919	0.1
654.174	0.1
654.429	0.1
654.684	0.09
654.939	0.08
655.194	0.07
655.449	0.07
655.704	0.07
655.959	0.07
656.214	0.07
656.469	0.07
656.724	0.07
656.979	0.07
657.234	0.07
657.488	0.08
657.743	0.08
657.998	0.07
658.253	0.07
658.508	0.08
658.763	0.07
659.017	0.07
659.272	0.07
659.527	0.07
659.782	0.06
660.037	0.06
660.291	0.07
660.546	0.08
660.801	0.08
661.056	0.09
661.31	0.11
661.565	0.12
661.82	0.13
662.074	0.13
662.329	0.14
662.584	0.15
662.838	0.15
663.093	0.14
663.348	0.14
663.602	0.13
663.857	0.12
664.112	0.11
664.366	0.1
664.621	0.09
664.876	0.09
665.13	0.08
665.385	0.08
665.639	0.08
665.894	0.08
666.148	0.08
666.403	0.09
666.657	0.09
666.912	0.09
667.166	0.09
667.421	0.09
667.675	0.09
667.93	0.1
668.184	0.09
668.439	0.09
668.693	0.09
668.948	0.09
669.202	0.08
669.457	0.08
669.711	0.08
669.966	0.08
670.22	0.08
670.474	0.08
670.729	0.08
670.983	0.08
671.237	0.07
671.492	0.07
671.746	0.08
672.001	0.08
672.255	0.07
672.509	0.07
672.763	0.07
673.018	0.07
673.272	0.06
673.526	0.06
673.781	0.07
674.035	0.06
674.289	0.06
674.543	0.06
674.798	0.06
675.052	0.06
675.306	0.06
675.56	0.06
675.814	0.06
676.069	0.06
676.323	0.06
676.577	0.06
676.831	0.07
677.085	0.07
677.339	0.07
677.594	0.07
677.848	0.07
678.102	0.08
678.356	0.08
678.61	0.08
678.864	0.08
679.118	0.08
679.372	0.08
679.626	0.08
679.88	0.08
680.134	0.08
680.388	0.08
680.643	0.08
680.897	0.08
681.151	0.08
681.405	0.07
681.659	0.07
681.912	0.07
682.166	0.07
682.42	0.07
682.674	0.06
682.928	0.07
683.182	0.06
683.436	0.06
683.69	0.06
683.944	0.06
684.198	0.05
684.452	0.05
684.706	0.05
684.959	0.06
685.213	0.06
685.467	0.06
685.721	0.07
685.975	0.08
686.229	0.09
686.482	0.1
686.736	0.11
686.99	0.13
687.244	0.13
687.498	0.13
687.751	0.13
688.005	0.13
688.259	0.13
688.513	0.12
688.766	0.11
689.02	0.1
689.274	0.09
689.527	0.08
689.781	0.07
690.035	0.07
690.289	0.06
690.542	0.05
690.796	0.05
691.049	0.05
691.303	0.05
691.557	0.05
691.81	0.06
692.064	0.07
692.318	0.08
692.571	0.08
692.825	0.09
693.078	0.1
693.332	0.1
693.585	0.1
693.839	0.1
694.092	0.1
694.346	0.09
694.599	0.08
694.853	0.08
695.106	0.07
695.36	0.05
695.613	0.04
695.867	0.04
696.12	0.03
696.374	0.03
696.627	0.03
696.881	0.03
697.134	0.03
697.387	0.03
697.641	0.03
697.894	0.03
698.148	0.03
698.401	0.03
698.654	0.03
698.908	0.03
699.161	0.03
699.414	0.03
699.668	0.04
699.921	0.04
700.174	0.04
700.428	0.04
700.681	0.04
700.934	0.04
701.188	0.04
701.441	0.04
701.694	0.04
701.947	0.04
702.2	0.05
702.454	0.05
702.707	0.05
702.96	0.06
703.213	0.06
703.467	0.07
703.72	0.07
703.973	0.08
704.226	0.09
704.479	0.11
704.732	0.12
704.985	0.14
705.239	0.17
705.492	0.2
705.745	0.23
705.998	0.26
706.251	0.29
706.504	0.31
706.757	0.32
707.01	0.33
707.263	0.34
707.516	0.36
707.769	0.38
708.022	0.4
708.275	0.41
708.528	0.39
708.781	0.37
709.034	0.35
709.287	0.33
709.54	0.32
709.793	0.3
710.046	0.29
710.299	0.27
710.552	0.25
710.805	0.24
711.058	0.24
711.311	0.25
711.563	0.27
711.816	0.28
712.069	0.28
712.322	0.29
712.575	0.28
712.828	0.27
713.081	0.25
713.333	0.23
713.586	0.2
713.839	0.16
714.092	0.12
714.345	0.09
714.597	0.07
714.85	0.05
715.103	0.05
715.356	0.04
715.608	0.04
715.861	0.03
716.114	0.03
716.367	0.03
716.619	0.03
716.872	0.03
717.125	0.03
717.377	0.03
717.63	0.03
717.883	0.02
718.135	0.03
718.388	0.03
718.64	0.03
718.893	0.02
719.146	0.02
719.398	0.03
719.651	0.03
719.903	0.02
720.156	0.02
720.409	0.03
720.661	0.03
720.914	0.03
721.166	0.02
721.419	0.03
721.671	0.03
721.924	0.02
722.176	0.02
722.429	0.03
722.681	0.03
722.934	0.02
723.186	0.02
723.438	0.03
723.691	0.02
723.943	0.02
724.196	0.03
724.448	0.03
724.701	0.03
724.953	0.02
725.205	0.02
725.458	0.02
725.71	0.02
725.962	0.02
726.215	0.02
726.467	0.02
726.719	0.02
726.972	0.02
727.224	0.02
727.476	0.02
727.729	0.02
727.981	0.03
728.233	0.03
728.485	0.03
728.738	0.03
728.99	0.02
729.242	0.03
729.494	0.03
729.746	0.03
729.999	0.02
730.251	0.02
730.503	0.03
730.755	0.03
731.007	0.03
731.26	0.03
731.512	0.03
731.764	0.03
732.016	0.02
732.268	0.02
732.52	0.02
732.772	0.03
733.024	0.02
733.276	0.02
733.528	0.02
733.781	0.02
734.033	0.01
734.285	0.01
734.537	0.01
734.789	0.02
735.041	0.01
735.293	0.01
735.545	0.02
735.797	0.02
736.049	0.02
736.301	0.03
736.553	0.03
736.804	0.03
737.056	0.03
737.308	0.04
737.56	0.04
737.812	0.05
738.064	0.04
738.316	0.05
738.568	0.04
738.82	0.04
739.072	0.04
739.323	0.04
739.575	0.04
739.827	0.03
740.079	0.03
740.331	0.03
740.582	0.03
740.834	0.03
741.086	0.03
741.338	0.03
741.59	0.04
741.841	0.03
742.093	0.03
742.345	0.04
742.597	0.04
742.848	0.04
743.1	0.04
743.352	0.03
743.603	0.03
743.855	0.03
744.107	0.03
744.358	0.03
744.61	0.03
744.862	0.03
745.113	0.03
745.365	0.03
745.617	0.03
745.868	0.03
746.12	0.03
746.371	0.03
746.623	0.02
746.874	0.03
747.126	0.03
747.378	0.02
747.629	0.03
747.881	0.03
748.132	0.02
748.384	0.02
748.635	0.02
748.887	0.03
749.138	0.03
749.39	0.03
749.641	0.04
749.892	0.04
750.144	0.04
750.395	0.05
750.647	0.05
750.898	0.05
751.15	0.05
751.401	0.06
751.652	0.06
751.904	0.06
752.155	0.05
752.406	0.05
752.658	0.05
752.909	0.04
753.16	0.04
753.412	0.03
753.663	0.03
753.914	0.03
754.166	0.03
754.417	0.03
754.668	0.03
754.919	0.02
755.171	0.02
755.422	0.02
755.673	0.02
755.924	0.03
756.176	0.02
756.427	0.03
756.678	0.03
756.929	0.03
757.18	0.03
757.432	0.03
757.683	0.03
757.934	0.03
758.185	0.03
758.436	0.03
758.687	0.02
758.938	0.02
759.189	0.01
759.441	0.01
759.692	0.01
759.943	0.01
760.194	0
760.445	0.01
760.696	0.01
760.947	0.01
761.198	0.01
761.449	0.01
761.7	0.02
761.951	0.03
762.202	0.04
762.453	0.05
762.704	0.06
762.955	0.07
763.206	0.06
763.457	0.06
763.708	0.06
763.959	0.07
764.209	0.07
764.46	0.06
764.711	0.06
764.962	0.04
765.213	0.03
765.464	0.02
765.715	0.02
765.966	0.02
766.216	0.02
766.467	0.02
766.718	0.02
766.969	0.02
767.22	0.01
767.47	0.01
767.721	0.02
767.972	0.02
768.223	0.02
768.473	0.02
768.724	0.02
768.975	0.02
769.226	0.02
769.476	0.01
769.727	0.02
769.978	0.02
770.228	0.01
770.479	0.01
770.73	0.02
770.98	0.02
771.231	0.02
771.482	0.03
771.732	0.04
771.983	0.03
772.233	0.03
772.484	0.03
772.735	0.03
772.985	0.03
773.236	0.03
773.486	0.02
773.737	0.02
773.987	0.02
774.238	0.01
774.488	0
774.739	0.01
774.989	0.01
775.24	0.01
775.49	0.01
775.741	0.02
775.991	0.02
776.242	0.01
776.492	0.01
776.743	0.02
776.993	0.02
777.244	0.02
777.494	0.02
777.744	0.02
777.995	0.02
778.245	0.02
778.495	0.01
778.746	0.02
778.996	0.02
779.246	0.02
779.497	0.02
779.747	0.03
779.997	0.02
780.248	0.02
780.498	0.02
780.748	0.02
780.999	0.02
781.249	0.02
781.499	0.02
781.749	0.03
782	0.03
782.25	0.02
782.5	0.01
782.75	0.02
783	0.02
783.251	0.02
783.501	0.02
783.751	0.03
784.001	0.03
784.251	0.02
784.501	0.02
784.751	0.03
785.002	0.03
785.252	0.02
785.502	0.02
785.752	0.02
786.002	0.02
786.252	0.03
786.502	0.02
786.752	0.03
787.002	0.03
787.252	0.03
787.502	0.03
787.752	0.03
788.002	0.03
788.252	0.03
788.502	0.03
788.752	0.03
789.002	0.02
789.252	0.02
789.502	0.02
789.752	0.02
790.002	0.02
790.252	0.01
790.502	0.01
790.752	0.02
791.001	0.02
791.251	0.03
791.501	0.03
791.751	0.03
792.001	0.03
792.251	0.03
792.501	0.03
792.75	0.03
793	0.03
793.25	0.02
793.5	0.03
793.749	0.04
793.999	0.03
794.249	0.02
794.499	0.02
794.749	0.02
794.998	0.02
795.248	0.02
795.498	0.02
795.747	0.03
795.997	0.03
796.247	0.03
796.496	0.03
796.746	0.03
796.996	0.03
797.245	0.03
797.495	0.03
797.745	0.03
797.994	0.04
798.244	0.03
798.493	0.04
798.743	0.04
798.993	0.03
799.242	0.03
799.492	0.03
799.741	0.05
799.991	0.05
800.24	0.06
800.49	0.06
800.739	0.06
800.989	0.07
801.238	0.06
801.488	0.06
801.737	0.07
801.987	0.06
802.236	0.06
802.486	0.06
802.735	0.05
802.985	0.04
803.234	0.03
803.483	0.03
803.733	0.04
803.982	0.03
804.231	0.02
804.481	0.02
804.73	0.02
804.98	0.01
805.229	0.01
805.478	0.01
805.728	0.02
805.977	0.02
806.226	0.01
806.475	0.01
806.725	0.02
806.974	0.02
807.223	0.01
807.472	0.01
807.722	0.02
807.971	0.02
808.22	0.02
808.469	0.02
808.719	0.02
808.968	0.03
809.217	0.03
809.466	0.04
809.715	0.06
809.964	0.08
810.214	0.1
810.463	0.13
810.712	0.16
810.961	0.16
811.21	0.16
811.459	0.16
811.708	0.16
811.957	0.16
812.206	0.15
812.455	0.15
812.704	0.13
812.953	0.11
813.202	0.06
813.451	0.05
813.7	0.05
813.949	0.04
814.198	0.04
814.447	0.03
814.696	0.04
814.945	0.03
815.194	0.02
815.443	0.02
815.692	0.02
815.941	0.02
816.19	0.01
816.439	0.02
816.688	0.03
816.937	0.02
817.186	0.02
817.434	0.01
817.683	0.02
817.932	0.02
818.181	0.01
818.43	0.02
818.679	0.03
818.927	0.04
819.176	0.03
819.425	0.03
819.674	0.03
819.922	0.03
820.171	0.02
820.42	0.03
820.669	0.03
820.917	0.03
821.166	0.01
821.415	0.01
821.664	0.01
821.912	0
822.161	-0
822.41	0
822.658	0.01
822.907	0.01
823.156	0
823.404	0
823.653	0.01
823.901	0.02
824.15	0.03
824.399	0.02
824.647	0.03
824.896	0.04
825.144	0.05
825.393	0.05
825.641	0.06
825.89	0.07
826.138	0.07
826.387	0.07
826.635	0.08
826.884	0.07
827.132	0.06
827.381	0.06
827.629	0.06
827.878	0.06
828.126	0.04
828.375	0.04
828.623	0.04
828.872	0.03
829.12	0.03
829.368	0.03
829.617	0.04
829.865	0.05
830.113	0.04
830.362	0.04
830.61	0.03
830.858	0.04
831.107	0.03
831.355	0.03
831.603	0.04
831.852	0.04
832.1	0.03
832.348	0.03
832.597	0.03
832.845	0.03
833.093	0.04
833.341	0.03
833.59	0.03
833.838	0.03
834.086	0.03
834.334	0.02
834.582	0.03
834.831	0.03
835.079	0.01
835.327	0.01
835.575	0.02
835.823	0.01
836.071	0.01
836.319	0.01
836.568	0.01
836.816	0.02
837.064	0.01
837.312	0.01
837.56	0.03
837.808	0.03
838.056	0.03
838.304	0.03
838.552	0.04
838.8	0.04
839.048	0.03
839.296	0.04
839.544	0.06
839.792	0.06
840.04	0.06
840.288	0.06
840.536	0.07
840.784	0.06
841.032	0.07
841.28	0.09
841.528	0.1
841.776	0.11
842.024	0.09
842.271	0.08
842.519	0.09
842.767	0.08
843.015	0.07
843.263	0.08
843.511	0.08
843.759	0.05
844.006	0.03
844.254	0.01
844.502	0.01
844.75	0.01
844.998	0.01
845.245	0.01
845.493	0.01
845.741	0.01
845.989	-0.01
846.236	0.01
846.484	0.02
846.732	0.02
846.979	0.02
847.227	0.02
847.475	0.04
847.722	0.03
847.97	0.01
848.218	0.03
848.465	0.03
848.713	0.03
848.961	0.02
849.208	0.02
849.456	0.03
849.703	0.04
849.951	0.03
850.199	0.03
850.446	0.04
850.694	0.05
850.941	0.03
851.189	0.04
851.436	0.04
851.684	0.04
851.931	0.03
852.179	0.03
852.426	0.02
852.674	0.02
852.921	0
853.169	0.01
853.416	0.01
853.664	0
853.911	-0.01
854.159	-0.01
854.406	0.01
854.653	0.01
854.901	0.01
855.148	0.03
855.395	0.04
855.643	0.04
855.89	0.02
856.138	0.03
856.385	0.04
856.632	0.04
856.879	0.04
857.127	0.04
857.374	0.05
857.621	0.03
857.869	0.02
858.116	0.02
858.363	0.03
858.61	0.03
858.858	0.01
859.105	0.01
859.352	0.02
859.599	0.01
859.846	-0
860.094	0.01
860.341	0.03
860.588	0.02
860.835	0.02
861.082	0.02
861.329	0.03
861.576	0.04
861.824	0.03
862.071	0.03
862.318	0.05
862.565	0.04
862.812	0.03
863.059	0.02
863.306	0.03
863.553	0.03
863.8	0.01
864.047	0.01
864.294	0.02
864.541	0.02
864.788	0.01
865.035	0.01
865.282	0.01
865.529	0.02
865.776	0.02
866.023	0.01
866.27	0.02
866.517	0.02
866.764	0.02
867.011	0.01
867.258	0.02
867.505	0.02
867.751	0
867.998	0
868.245	-0.01
868.492	-0.01
868.739	-0.01
868.986	0
869.232	0
869.479	0
869.726	-0
869.973	-0.01
870.22	0.02
870.466	0.03
870.713	0.03
870.96	0.05
871.207	0.05
871.453	0.05
871.7	0.04
871.947	0.04
872.193	0.06
872.44	0.05
872.687	0.05
872.934	0.03
873.18	0.03
873.427	0.02
873.673	0
873.92	0.02
874.167	0.03
874.413	0.04
874.66	0.05
874.907	0.05
875.153	0.06
875.4	0.06
875.646	0.06
875.893	0.07
876.139	0.09
876.386	0.09
876.632	0.07
876.879	0.06
877.125	0.06
877.372	0.05
877.618	0.03
877.865	0.04
878.111	0.04
878.358	0.03
878.604	0.01
878.851	0.01
879.097	0.03
879.344	0.03
879.59	0.02
879.836	0.01
880.083	0.03
880.329	0.03
880.575	0.02
880.822	0.03
881.068	0.06
881.314	0.06
881.561	0.05
881.807	0.05
882.053	0.06
882.3	0.08
882.546	0.07
882.792	0.07
883.039	0.07
883.285	0.07
883.531	0.05
883.777	0.03
884.023	0.04
884.27	0.04
884.516	0.01
884.762	0
885.008	0
885.254	0.01
885.501	-0
885.747	-0
885.993	0.01
886.239	0.02
886.485	0.01
886.731	0.02
886.977	0.04
887.224	0.04
887.47	0.03
887.716	0.05
887.962	0.06
888.208	0.05
888.454	0.06
888.7	0.06
888.946	0.07
889.192	0.07
889.438	0.05
889.684	0.04
889.93	0.04
890.176	0.04
890.422	0.02
890.668	0.03
890.914	0.06
891.16	0.05
891.406	0.03
891.652	0.02
891.898	0.05
892.143	0.05
892.389	0.04
892.635	0.05
892.881	0.06
893.127	0.05
893.373	0.03
893.619	0.01
893.864	0.03
894.11	0.02
894.356	0.01
894.602	-0.01
894.848	0
895.093	0.02
895.339	0.01
895.585	0.03
895.831	0.04
896.076	0.04
896.322	0.03
896.568	0.03
896.814	0.05
897.059	0.05
897.305	0.05
897.551	0.07
897.796	0.06
898.042	0.06
898.288	0.04
898.533	0.05
898.779	0.07
899.025	0.07
899.27	0.06
899.516	0.06
899.761	0.08
900.007	0.08
900.253	0.05
900.498	0.05
900.744	0.08
900.989	0.08
901.235	0.06
901.48	0.05
901.726	0.07
901.971	0.06
902.217	0.05
902.462	0.03
902.708	0.02
902.953	0.01
903.199	-0
903.444	-0.01
903.689	-0
903.935	0.01
904.18	-0
904.426	0.02
904.671	0.06
904.916	0.04
905.162	0.04
905.407	0.06
905.653	0.09
905.898	0.1
906.143	0.08
906.389	0.09
906.634	0.09
906.879	0.1
907.124	0.08
907.37	0.05
907.615	0.07
907.86	0.07
908.106	0.05
908.351	0.05
908.596	0.06
908.841	0.05
909.086	0.02
909.332	-0
909.577	0.03
909.822	0.02
910.067	0.02
910.312	0.02
910.558	0.04
910.803	0.06
911.048	0.05
911.293	0.06
911.538	0.09
911.783	0.09
912.028	0.09
912.273	0.07
912.518	0.08
912.763	0.08
913.009	0.05
913.254	0.05
913.499	0.05
913.744	0.02
913.989	-0
914.234	-0.01
914.479	0.02
914.724	0.02
914.969	-0.01
915.214	0
915.459	0.03
915.703	0.03
915.948	0.01
916.193	0.02
916.438	0.05
916.683	0.05
916.928	0.02
917.173	0.02
917.418	0.05
917.663	0.05
917.907	0.04
918.152	0.05
918.397	0.07
918.642	0.06
918.887	0.02
919.132	-0.01
919.376	0.03
919.621	0.03
919.866	0
920.111	-0.02
920.355	0.02
920.6	0.01
920.845	-0.02
921.09	-0.02
921.334	0.01
921.579	0.02
921.824	0.02
922.068	0.01
922.313	0.02
922.558	0.04
922.802	0.03
923.047	0.02
923.292	0.06
923.536	0.05
923.781	0.03
924.026	0.04
924.27	0.04
924.515	0.04
924.759	0.04
925.004	0.07
925.248	0.08
925.493	0.1
925.738	0.08
925.982	0.04
926.227	0.09
926.471	0.1
926.716	0.06
926.96	0.07
927.205	0.1
927.449	0.08
927.693	0.04
927.938	0.03
928.182	0.03
928.427	0.04
928.671	0.04
928.916	0.04
929.16	0.06
929.404	0.07
929.649	0.05
929.893	0.05
930.137	0.1
930.382	0.1
930.626	0.07
930.87	0.09
931.115	0.1
931.359	0.1
931.603	0.05
931.848	0.07
932.092	0.09
932.336	0.12
932.58	0.07
932.825	0.05
933.069	0.07
933.313	0.07
933.557	0.02
933.802	0.03
934.046	0.07
934.29	0.08
934.534	0.06
934.778	0.06
935.022	0.07
935.267	0.07
935.511	0.06
935.755	0.06
935.999	0.1
936.243	0.1
936.487	0.08
936.731	0.08
936.975	0.1
937.219	0.11
937.463	0.1
937.707	0.06
937.951	0.12
938.195	0.11
938.439	0.1
938.683	0.1
938.927	0.13
939.171	0.13
939.415	0.07
939.659	0.05
939.903	0.09
940.147	0.06
940.391	0.03
940.635	0.04
940.879	0.09
941.123	0.07
941.367	0.02
941.611	0.05
941.855	0.09
942.098	0.13
942.342	0.12
942.586	0.09
942.83	0.13
943.074	0.15
943.318	0.08
943.561	0.05
943.805	0.11
944.049	0.12
944.293	0.07
944.536	0.02
944.78	0.07
945.024	0.07
945.268	0.03
945.511	0.03
945.755	0.02
945.999	0.05
946.243	0.01
946.486	0.01
946.73	0.01
946.974	-0
947.217	-0.01
947.461	-0.05
947.704	0.01
947.948	0
948.192	-0.01
948.435	0.05
948.679	0.09
948.922	0.1
949.166	0.02
949.41	0.08
949.653	0.16
949.897	0.15
950.14	0.07
950.384	0.06
950.627	0.13
950.871	0.15
951.114	0.07
951.358	0.08
951.601	0.16
951.845	0.17
952.088	0.09
952.331	0.05
952.575	0.14
952.818	0.18
953.062	0.12
953.305	0.09
953.548	0.08
953.792	0.1
954.035	0.06
954.279	0
954.522	0.09
954.765	0.13
955.009	0.12
955.252	0.1
955.495	0.15
955.739	0.13
955.982	0.06
956.225	0.11
956.468	0.13
956.712	0.1
956.955	0.07
957.198	0.05
957.441	0.12
957.685	0.12
957.928	0.06
958.171	0.06
958.414	0.16
958.657	0.17
958.9	0.11
959.144	0.17
959.387	0.25
959.63	0.28
959.873	0.2
960.116	0.17
960.359	0.22
960.602	0.23
960.845	0.18
961.088	0.19
961.332	0.25
961.575	0.28
961.818	0.21
962.061	0.18
962.304	0.21
962.547	0.24
962.79	0.16
963.033	0.14
963.276	0.21
963.519	0.22
963.762	0.15
964.005	0.12
964.247	0.12
964.49	0.11
964.733	0.07
964.976	0.07
965.219	0.13
965.462	0.13
965.705	0.09
965.948	0.09
966.191	0.14
966.433	0.15
966.676	0.08
966.919	0.07
967.162	0.15
967.405	0.14
967.648	0.05
967.89	0.03
968.133	0.11
968.376	0.08
968.619	-0.01
968.861	0.01
969.104	0.02
969.347	0.04
969.59	0.02
969.832	0.02
970.075	0.06
970.318	0.07
970.56	0.02
970.803	-0.05
971.046	0.06
971.288	0.08
971.531	0.03
971.774	0.02
972.016	0.13
972.259	0.15
972.501	0.07
972.744	0.11
972.987	0.21
973.229	0.2
973.472	0.2
973.714	0.18
973.957	0.29
974.199	0.29
974.442	0.24
974.684	0.23
974.927	0.25
975.169	0.24
975.412	0.16
975.654	0.15
975.897	0.22
976.139	0.23
976.382	0.19
976.624	0.14
976.866	0.17
977.109	0.21
977.351	0.14
977.594	0.2
977.836	0.31
978.078	0.31
978.321	0.21
978.563	0.24
978.805	0.28
979.048	0.29
979.29	0.22
979.532	0.22
979.775	0.29
980.017	0.33
980.259	0.2
980.501	0.19
980.744	0.27
980.986	0.28
981.228	0.2
981.47	0.22
981.713	0.23
981.955	0.24
982.197	0.17
982.439	0.19
982.681	0.17
982.923	0.18
983.166	0.08
983.408	0.09
983.65	0.18
983.892	0.14
984.134	0.03
984.376	0.09
984.618	0.12
984.86	0.12
985.102	0.03
985.344	0.09
985.587	0.21
985.829	0.18
986.071	0.08
986.313	0.11
986.555	0.24
986.797	0.3
987.039	0.18
987.281	0.24
987.523	0.34
987.764	0.35
988.006	0.26
988.248	0.23
988.49	0.35
988.732	0.38
988.974	0.23
989.216	0.21
989.458	0.26
989.7	0.26
989.942	0.13
990.183	0.09
990.425	0.12
990.667	0.1
990.909	-0.03
991.151	-0.06
991.393	-0.02
991.634	0.02
991.876	-0.06
992.118	-0
992.36	0.07
992.601	0.2
992.843	0.15
993.085	0.21
993.327	0.38
993.568	0.42
993.81	0.34
994.052	0.34
994.293	0.4
994.535	0.37
994.777	0.2
995.018	0.23
995.26	0.17
995.502	0.12
995.743	0.01
995.985	-0.07
996.226	0.07
996.468	0.09
996.71	0.01
996.951	-0.02
997.193	0.14
997.434	0.19
997.676	0.07
997.917	0.13
998.159	0.31
998.4	0.25
998.642	0.18
998.883	0.16
999.125	0.26
999.366	0.25
999.608	0.18
999.849	0.11
1000.091	0.15
1000.332	0.2
1000.573	0.09
1000.815	-0.01
1001.056	0.2
1001.298	0.2
1001.539	0.05
1001.78	0.06
1002.022	0.25
1002.263	0.27
1002.504	0.21
1002.746	0.3
1002.987	0.42
1003.228	0.4
1003.47	0.34
1003.711	0.23
1003.952	0.25
1004.193	0.3
1004.435	0.19
1004.676	0.1
1004.917	0.23
1005.158	0.21
1005.399	0.02
1005.641	-0.01
1005.882	0.15
1006.123	0.14
1006.364	0.1
1006.605	0.21
1006.847	0.36
1007.088	0.35
1007.329	0.22
1007.57	0.21
1007.811	0.41
1008.052	0.42
1008.293	0.23
1008.534	0.24
1008.775	0.37
1009.016	0.41
1009.257	0.31
1009.498	0.27
1009.739	0.3
1009.98	0.37
1010.221	0.36
1010.462	0.26
1010.703	0.42
1010.944	0.47
1011.185	0.33
1011.426	0.36
1011.667	0.37
1011.908	0.28
1012.149	0.17
1012.39	0.3
1012.631	0.5
1012.872	0.44
1013.113	0.44
1013.354	0.43
1013.594	0.61
1013.835	0.57
1014.076	0.38
1014.317	0.5
1014.558	0.62
1014.799	0.56
1015.039	0.39
1015.28	0.34
1015.521	0.42
1015.762	0.36
1016.002	0.25
1016.243	0.12
1016.484	0.27
1016.725	0.36
1016.965	0.2
1017.206	0.27
1017.447	0.42
1017.687	0.41
1017.928	0.21
1018.169	0.2
1018.409	0.35
1018.65	0.36
1018.891	0.29
1019.131	0.28
1019.372	0.43
1019.612	0.4
1019.853	0.22
1020.094	0.26
1020.334	0.41
1020.575	0.41
1020.815	0.33
1021.056	0.3
1021.296	0.34
1021.537	0.38
1021.777	0.21
1022.018	0.11
1022.258	0.19
1022.499	0.24
1022.739	-0.04
1022.98	-0.02
1023.22	0.16
1023.461	0.07
1023.701	-0.08
1023.942	-0.01
1024.182	0.09
1024.422	0.15
1024.663	-0.02
1024.903	0.15
1025.143	0.26
1025.384	0.41
1025.624	0.18
1025.864	0.13
1026.105	0.15
1026.345	0.14
1026.585	0.02
1026.826	0.09
1027.066	0.22
1027.306	0.25
1027.547	-0.04
1027.787	-0.09
1028.027	0.05
1028.267	0.05
1028.507	-0.12
1028.748	0.02
1028.988	0.27
1029.228	0.17
1029.468	-0.07
1029.708	-0.09
1029.949	0.05
1030.189	0.04
1030.429	-0.06
1030.669	-0.01
1030.909	0.24
1031.149	0.24
1031.389	0.1
1031.629	-0.02
1031.869	0.24
1032.109	0.25
1032.35	0.08
1032.59	0.1
1032.83	0.26
1033.07	0.26
1033.31	0.09
1033.55	0.02
1033.79	0.15
1034.03	0.15
1034.27	-0.01
1034.51	-0.06
1034.749	0.11
1034.989	0.13
1035.229	0.07
1035.469	0.12
1035.709	0.32
1035.949	0.26
1036.189	0.12
1036.429	0.35
1036.669	0.61
1036.909	0.67
1037.148	0.43
1037.388	0.57
1037.628	0.88
1037.868	0.76
1038.108	0.56
1038.347	0.56
1038.587	0.72
1038.827	0.68
1039.067	0.4
1039.307	0.34
1039.546	0.46
1039.786	0.62
1040.026	0.29
1040.265	0.26
1040.505	0.45
1040.745	0.58
1040.985	0.24
1041.224	0.29
1041.464	0.43
1041.703	0.43
1041.943	0.17
1042.183	0.06
1042.422	0.34
1042.662	0.31
1042.902	0.04
1043.141	0.12
1043.381	0.22
1043.62	0.33
1043.86	0.15
1044.099	0.24
1044.339	0.58
1044.578	0.54
1044.818	0.55
1045.057	0.39
1045.297	0.74
1045.536	0.67
1045.776	0.31
1046.015	0.55
1046.255	0.71
1046.494	0.69
1046.734	0.37
1046.973	0.13
1047.213	0.61
1047.452	0.46
1047.691	0.2
1047.931	0.28
1048.17	0.71
1048.409	0.69
1048.649	0.25
1048.888	0.29
1049.127	0.67
1049.367	0.73
1049.606	0.51
1049.845	0.29
1050.085	0.61
1050.324	0.69
1050.563	0.21
1050.802	-0.06
1051.042	0.38
1051.281	0.25
1051.52	-0.17
1051.759	-0.3
1051.999	-0.05
1052.238	-0.06
1052.477	-0.37
1052.716	-0.2
1052.955	0.01
1053.194	-0.03
1053.434	-0.08
1053.673	-0.08
1053.912	0.37
1054.151	0.58
1054.39	0.28
1054.629	0.54
1054.868	1.03
1055.107	1.15
1055.346	0.56
1055.585	0.46
1055.824	0.99
1056.063	0.92
1056.302	0.51
1056.541	0.62
1056.78	0.76
1057.019	0.75
1057.258	0.33
1057.497	0.05
1057.736	0.34
1057.975	0.48
1058.214	0.36
1058.453	0.36
1058.692	0.64
1058.931	0.69
1059.17	0.12
1059.409	0.3
1059.647	0.69
1059.886	0.7
1060.125	0.36
1060.364	0.27
1060.603	0.6
1060.842	0.42
1061.08	-0.15
1061.319	0.03
1061.558	0.5
1061.797	0.55
1062.036	0.21
1062.274	0.25
1062.513	0.6
1062.752	0.77
1062.991	0.51
1063.229	0.43
1063.468	0.89
1063.707	1.03
1063.945	0.55
1064.184	0.35
1064.423	0.73
1064.661	0.74
1064.9	0.29
1065.139	0.21
1065.377	0.56
1065.616	0.61
1065.854	0.22
1066.093	0.01
1066.332	0.44
1066.57	0.48
1066.809	0.36
1067.047	0.32
1067.286	0.97
1067.524	0.88
1067.763	0.44
1068.001	0.51
1068.24	0.86
1068.478	1.8
1068.717	1.68
1068.955	1.62
1069.194	2.28
1069.432	2.09
1069.671	1.82
1069.909	1.52
1070.147	2.17
1070.386	1.95
1070.624	1.31
1070.863	1.44
1071.101	1.29
1071.339	1.35
1071.578	1
1071.816	0.58
1072.054	1.15
1072.293	1.19
1072.531	0.94
1072.769	0.84
1073.007	1.83
1073.246	2.07
1073.484	1.72
1073.722	1.5
1073.96	2.01
1074.199	2.02
1074.437	1.39
1074.675	1.73
1074.913	2.15
1075.152	1.84
1075.39	1.27
1075.628	0.84
1075.866	1.55
1076.104	1.28
1076.342	0.82
1076.58	1.02
1076.819	1.44
1077.057	1.79
1077.295	1
1077.533	1.07
1077.771	1.63
1078.009	1.84
1078.247	1.87
1078.485	1.67
1078.723	2.54
1078.961	2.29
1079.199	1.57
1079.437	1.6
1079.675	2.63
1079.913	2.66
1080.151	1.97
1080.389	2.23
1080.627	2.93
1080.865	2.6
1081.103	2.32
1081.341	1.98
1081.579	2.85
1081.817	2.76
1082.054	2.42
1082.292	2.18
1082.53	3.29
1082.768	4.04
1083.006	3.4
1083.244	3.01
1083.481	4.02
1083.719	3.79
1083.957	3.58
1084.195	3.88
1084.433	4.4
1084.67	4.8
1084.908	4.17
1085.146	4
1085.384	4.55
1085.621	5.09
1085.859	4.95
1086.097	5.12
1086.335	5.51
1086.572	5.3
1086.81	4.61
1087.048	5.11
1087.285	5.98
1087.523	5.9
1087.76	5.03
1087.998	4.58
1088.236	4.58
1088.473	4.64
1088.711	3.88
1088.948	4.46
1089.186	5.53
1089.424	5.54
1089.661	4.71
1089.899	4.31
1090.136	4.67
1090.374	5.1
1090.611	4.84
1090.849	5.3
1091.086	6.39
1091.324	6.38
1091.561	5.49
1091.799	5.37
1092.036	6.78
1092.273	6.63
1092.511	5.63
1092.748	6.57
1092.986	6.96
1093.223	6.72
1093.46	5.57
1093.698	5.21
1093.935	5.57
1094.173	5.81
1094.41	4.33
1094.647	3.6
1094.885	3.77
1095.122	3.56
1095.359	1.92
1095.596	2.16
1095.834	3.14
1096.071	3.27
1096.308	2.06
1096.545	2.15
1096.783	2.84
1097.02	3.28
1097.257	1.89
1097.494	2.7
1097.731	3.6
1097.969	3.14
1098.206	1.48
1098.443	1.72
1098.68	3.08
1098.917	3.27
1099.154	2.54
1099.392	2.5
1099.629	3.94
1099.866	4.26
1100.103	3.2
1100.34	2.78
1100.577	4.21
1100.814	4.67
1101.051	2.53
1101.288	2.2
1101.525	3.22
1101.762	2.69
1101.999	0.8
1102.236	-0.06
1102.473	1.19
1102.71	0.79
1102.947	-0.15
1103.184	1.02
1103.421	1.91
1103.658	2.8
1103.895	1.38
1104.132	1.3
1104.369	2.65
1104.605	3.29
1104.842	2.16
1105.079	1.62
1105.316	3.16
1105.553	3.64
1105.79	1.37
1106.026	-0.27
1106.263	1.34
1106.5	1.29
1106.737	-0.61
1106.974	-0.6
1107.21	0.87
1107.447	0.75
1107.684	-0.98
1107.921	-1.38
1108.157	1.05
1108.394	0.73
1108.631	0.49
1108.867	-0.14
1109.104	1.63
1109.341	1.75
1109.577	1.22
1109.814	0.14
1110.051	2.44
1110.287	3.03
1110.524	2.59
1110.761	1.93
1110.997	3.7
1111.234	3.09
1111.47	1.73
1111.707	1.46
1111.944	3.77
1112.18	2.46
1112.417	1.26
1112.653	-0.17
1112.89	1.06
1113.126	0.44
1113.363	-1.86
1113.599	-2.62
1113.836	0.58
1114.072	0.13
1114.308	-1.44
1114.545	-1.24
1114.781	0.99
1115.018	1.24
1115.254	0.55
1115.491	0.76
1115.727	2.76
1115.963	2.2
1116.2	0.85
1116.436	-1.53
1116.672	0.29
1116.909	0.23
1117.145	-2.14
1117.381	-3.71
1117.618	-1.35
1117.854	-1.76
1118.09	-3.35
1118.326	-4.89
1118.563	-0.26
1118.799	0.23
1119.035	-0.58
1119.271	-1.9
1119.508	-1.09
1119.744	-0.2
1119.98	0.24
1120.216	-3.09
